Ewe/V	<I>/mA	
3,0841827E-004	0,000000000000000E+000
3,0841827E-004	0,000000000000000E+000
3,0078707E-004	0,000000000000000E+000
8,7693986E-004	8,729057337592826E-004
8,8075543E-004	3,830541242271132E-001
8,9601771E-004	3,696769772457778E-001
8,5786189E-004	3,674920824559617E-001
9,0746442E-004	3,657341867451927E-001
8,6930871E-004	3,644923620511362E-001
8,9601777E-004	3,631672015023514E-001
8,4641512E-004	3,632334695606566E-001
9,1509562E-004	3,633728629295611E-001
8,6549309E-004	3,643093104782422E-001
8,8838657E-004	3,656526850267585E-001
8,8075548E-004	3,699060022101741E-001
8,8457100E-004	3,680977346426352E-001
8,8457100E-004	3,693961656129648E-001
8,9220220E-004	3,719035432114113E-001
8,5404632E-004	3,712494778064471E-001
8,9983328E-004	3,707391065197980E-001
8,3878404E-004	3,696043578772975E-001
8,5404632E-004	3,706641689537704E-001
8,3115289E-004	3,689273201860055E-001
8,6549309E-004	3,675778765135910E-001
8,7693980E-004	3,703013090338772E-001
8,8457100E-004	3,697940396326252E-001
8,5786189E-004	3,704817954075697E-001
8,6930860E-004	3,711145228915675E-001
8,6930871E-004	3,687590468997035E-001
8,8075543E-004	3,657624804389731E-001
8,3878404E-004	3,652371091722106E-001
8,5404638E-004	3,652673557108986E-001
8,5023080E-004	3,653989655117010E-001
8,4259955E-004	3,644756023153669E-001
8,5023075E-004	3,660445529007897E-001
8,6167752E-004	3,701460702704379E-001
8,5023080E-004	3,724808564047732E-001
8,3496841E-004	3,705318864489695E-001
8,8457100E-004	3,693355323096982E-001
8,1589050E-004	3,698285351958117E-001
8,5023075E-004	3,718577997746345E-001
8,5404632E-004	3,723489140458072E-001
8,7312423E-004	3,717950590775730E-001
8,8457100E-004	3,703893572319404E-001
8,8457100E-004	3,706583982345733E-001
8,3496841E-004	3,706727988840078E-001
8,5023075E-004	3,720365356254308E-001
8,6167752E-004	3,723499458201158E-001
8,5023080E-004	3,726690426258816E-001
8,3878404E-004	3,746631319458945E-001
8,8075537E-004	3,746326990294382E-001
8,3115284E-004	3,743002731942524E-001
8,1970613E-004	3,751897140274020E-001
8,5404638E-004	3,768617543056375E-001
8,5404632E-004	3,769601768890813E-001
8,2352170E-004	3,744689503616376E-001
8,9983339E-004	3,767565780031701E-001
8,3496841E-004	3,757413454741090E-001
8,8075537E-004	3,773598192653480E-001
8,8075537E-004	3,750435551437143E-001
8,2352170E-004	3,768920689247524E-001
8,6930860E-004	3,767827127928203E-001
8,9220220E-004	3,758724539342712E-001
8,7312429E-004	3,753193718731009E-001
1,5980847E-003	9,833327184178866E-001
5,0861053E-002	3,419811276195777E+001
5,0891578E-002	3,457267311535306E+001
5,0872501E-002	3,416137171641291E+001
5,0918285E-002	3,401376220722133E+001
5,0899211E-002	3,383732053864050E+001
5,0883949E-002	3,383177730577342E+001
5,0903026E-002	3,393069836692716E+001
5,0899211E-002	3,406628818358487E+001
5,0922103E-002	3,410372416399225E+001
5,0918289E-002	3,411161757620948E+001
5,0841976E-002	3,420392962688133E+001
5,0910655E-002	3,430388716953708E+001
5,0903026E-002	3,438663079650529E+001
5,0880134E-002	3,433525053168803E+001
5,0861057E-002	3,438768611574582E+001
5,0880130E-002	3,445263304579228E+001
5,0880134E-002	3,453829211701748E+001
5,0895393E-002	3,451073962532413E+001
5,0880130E-002	3,448157706050051E+001
5,0887764E-002	3,453620119975885E+001
5,0918285E-002	3,460019282658904E+001
5,0872501E-002	3,463476946854528E+001
5,0922103E-002	3,455532475294581E+001
5,0925918E-002	3,459122498273456E+001
5,0861053E-002	3,464213552631804E+001
5,0883949E-002	3,470355436865940E+001
5,0876316E-002	3,464547051404266E+001
5,0922103E-002	3,462338992266454E+001
5,0891578E-002	3,467350157706768E+001
5,0883949E-002	3,472701048726342E+001
5,0849605E-002	3,473655804609837E+001
5,0933547E-002	3,465643638422325E+001
5,0853424E-002	3,469526940446085E+001
5,0872501E-002	3,474426663165077E+001
5,0864868E-002	3,479153869018749E+001
5,0918289E-002	3,471500413777799E+001
5,0883949E-002	3,469385177747191E+001
5,0922103E-002	3,474124781443583E+001
5,0891578E-002	3,478385552730419E+001
5,0883945E-002	3,476087037352529E+001
5,0891578E-002	3,468532448080874E+001
5,0918285E-002	3,471790729260597E+001
5,0895393E-002	3,475623288866693E+001
5,0941180E-002	3,478864697639984E+001
5,0929733E-002	3,470261178974765E+001
5,0918285E-002	3,469670733555796E+001
5,0929733E-002	3,474446904407043E+001
5,0906844E-002	3,478576748642841E+001
5,0903026E-002	3,474435433917252E+001
5,0929736E-002	3,468244871932252E+001
5,0880130E-002	3,472594056917610E+001
5,0914470E-002	3,476823277376621E+001
5,0891578E-002	3,478584369492643E+001
5,0891578E-002	3,469658797520339E+001
5,0887764E-002	3,470123605271338E+001
5,0906841E-002	3,475097224095103E+001
5,0914470E-002	3,478863059990407E+001
5,0872501E-002	3,473431901634820E+001
5,0868686E-002	3,468023240914690E+001
5,0868683E-002	3,472241473859637E+001
8,0248661E-002	5,985861357270264E+001
1,0067728E-001	7,062467660254981E+001
1,0067347E-001	6,866464380767390E+001
1,0070018E-001	6,807273443603154E+001
1,0064676E-001	6,792335840228974E+001
1,0067347E-001	6,794992942346879E+001
1,0070018E-001	6,801932254503380E+001
1,0067728E-001	6,796052795889277E+001
1,0068491E-001	6,797479994564247E+001
1,0067728E-001	6,815136037948508E+001
1,0065439E-001	6,831049811696472E+001
1,0072307E-001	6,833487708028811E+001
1,0065057E-001	6,825207899317446E+001
1,0067728E-001	6,833818124296923E+001
1,0068491E-001	6,849737095646336E+001
1,0066965E-001	6,858120515047573E+001
1,0064294E-001	6,846338861765324E+001
1,0067728E-001	6,844924375493017E+001
1,0068110E-001	6,857780923059012E+001
1,0069636E-001	6,868493194295203E+001
1,0068873E-001	6,862701899288062E+001
1,0068491E-001	6,852619413986972E+001
1,0067347E-001	6,859066232539723E+001
1,0067347E-001	6,871536245824714E+001
1,0066965E-001	6,874804943111879E+001
1,0068873E-001	6,860436947143444E+001
1,0063531E-001	6,860732002235125E+001
1,0069255E-001	6,873224222094163E+001
1,0068110E-001	6,882920846942392E+001
1,0065057E-001	6,872894523599506E+001
1,0068491E-001	6,864724977189512E+001
1,0070018E-001	6,871049885949145E+001
1,0066202E-001	6,883614529363479E+001
1,0072307E-001	6,883564925022627E+001
1,0070781E-001	6,868871791564288E+001
1,0070399E-001	6,869258755685394E+001
1,0070399E-001	6,880409463822308E+001
1,0073069E-001	6,887395886575705E+001
1,0069255E-001	6,873394841300133E+001
1,0061242E-001	6,867623323057408E+001
1,0070399E-001	6,873934705510548E+001
1,0069255E-001	6,885233148941722E+001
1,0065058E-001	6,880290742658420E+001
1,0068110E-001	6,866759207740168E+001
1,0065821E-001	6,869115059545288E+001
1,0066965E-001	6,880704525627857E+001
1,0066965E-001	6,886236609660432E+001
1,0067728E-001	6,869899007166410E+001
1,0065439E-001	6,866952719097597E+001
1,0072688E-001	6,874327248855425E+001
1,0070018E-001	6,885709497983297E+001
1,0066965E-001	6,877222844173936E+001
1,0066965E-001	6,865487552587194E+001
1,0065057E-001	6,868923226196935E+001
1,0068873E-001	6,880521391315369E+001
1,0068491E-001	6,884031507676015E+001
1,0072688E-001	6,866282716334089E+001
1,0068491E-001	6,866046773029788E+001
1,0067347E-001	6,873665282285970E+001
1,0066202E-001	6,884508688169026E+001
1,3009541E-001	6,872442750812029E+001
1,4167571E-001	9,929790747673785E+001
1,5092085E-001	1,009809513547043E+002
1,5093230E-001	1,024423064499099E+002
1,5095900E-001	1,022481699429303E+002
1,5097046E-001	1,021211094431995E+002
1,5097427E-001	1,017883596331578E+002
1,5095519E-001	1,018468977373588E+002
1,5094374E-001	1,020618953959883E+002
1,5093613E-001	1,023175263503221E+002
1,5095139E-001	1,021615417226633E+002
1,5097427E-001	1,021461891053932E+002
1,5097427E-001	1,023098447552794E+002
1,5096664E-001	1,025688659120303E+002
1,5097427E-001	1,025825864110342E+002
1,5094756E-001	1,023587529214930E+002
1,5095139E-001	1,024573512180511E+002
1,5097427E-001	1,026290955659567E+002
1,5093993E-001	1,028069879242714E+002
1,5096664E-001	1,025451869899234E+002
1,5092085E-001	1,025234463063908E+002
1,5090178E-001	1,026460062353292E+002
1,5091704E-001	1,028593016447702E+002
1,5090559E-001	1,027776595818557E+002
1,5094757E-001	1,025560677793828E+002
1,5098953E-001	1,026510085349551E+002
1,5089415E-001	1,028076118378614E+002
1,5093611E-001	1,029411694752075E+002
1,5092467E-001	1,026308589586404E+002
1,5093231E-001	1,026411426625134E+002
1,5095520E-001	1,027634725697786E+002
1,5093613E-001	1,029525239844665E+002
1,5095137E-001	1,028155020922721E+002
1,5095137E-001	1,026189539580345E+002
1,5093230E-001	1,027301683712443E+002
1,5095137E-001	1,028867097722936E+002
1,5098190E-001	1,029813748457910E+002
1,5097427E-001	1,026570254220089E+002
1,5095519E-001	1,026976026630242E+002
1,5091322E-001	1,028162552203429E+002
1,5095139E-001	1,029943789980361E+002
1,5094376E-001	1,027992207579375E+002
1,5090559E-001	1,026424052449428E+002
1,5093611E-001	1,027495765168762E+002
1,5091704E-001	1,029000805291622E+002
1,5091704E-001	1,029337574953450E+002
1,5092085E-001	1,026062392192489E+002
1,5093993E-001	1,026677031719125E+002
1,5091704E-001	1,027887950206746E+002
1,5095901E-001	1,029375578524966E+002
1,5095901E-001	1,027004659382430E+002
1,5095137E-001	1,025879102469231E+002
1,5092848E-001	1,027180119302024E+002
1,5095139E-001	1,028680492936118E+002
1,5091322E-001	1,028468580684061E+002
1,5090941E-001	1,025596451842583E+002
1,5095901E-001	1,026568634820024E+002
1,5091322E-001	1,027919063809217E+002
1,5092085E-001	1,029123201672277E+002
1,5093993E-001	1,026449392400630E+002
1,5094374E-001	1,025875857001009E+002
1,5097809E-001	1,027275715235142E+002
1,9191547E-001	1,367863956674291E+002
2,0087826E-001	1,379642913911549E+002
2,0091641E-001	1,360166226255220E+002
2,0087063E-001	1,353645542252603E+002
2,0085919E-001	1,354393688969501E+002
2,0088206E-001	1,356039144577475E+002
2,0091641E-001	1,357640330042729E+002
2,0087826E-001	1,354547880715340E+002
2,0085917E-001	1,355288214535312E+002
2,0086682E-001	1,358260766398735E+002
2,0086682E-001	1,360898307480990E+002
2,0087063E-001	1,359799946430293E+002
2,0090117E-001	1,357606221124631E+002
2,0092787E-001	1,359980021752226E+002
2,0085156E-001	1,362438594690311E+002
2,0085154E-001	1,363327038712999E+002
2,0087826E-001	1,359708885514907E+002
2,0082484E-001	1,360346079622801E+002
2,0089352E-001	1,362836248234292E+002
2,0085536E-001	1,364672604176678E+002
2,0088971E-001	1,362432654504614E+002
2,0085917E-001	1,360522273169732E+002
2,0083629E-001	1,362771460909657E+002
2,0085917E-001	1,364950147152439E+002
2,0081340E-001	1,364916580043437E+002
2,0086682E-001	1,361371524472925E+002
2,0085537E-001	1,362275619680090E+002
2,0087063E-001	1,364716658163387E+002
2,0085154E-001	1,366090831782086E+002
2,0087063E-001	1,363117393291443E+002
2,0088971E-001	1,361804187295134E+002
2,0089734E-001	1,363993642337016E+002
2,0090878E-001	1,366048773095721E+002
2,0089734E-001	1,364985118161624E+002
2,0084393E-001	1,361821608865398E+002
2,0089352E-001	1,362876652227012E+002
2,0090497E-001	1,365335489050602E+002
2,0087443E-001	1,366143056118122E+002
2,0085537E-001	1,362753819704377E+002
2,0088971E-001	1,362010693525937E+002
2,0090879E-001	1,364247692422780E+002
2,0084774E-001	1,366129804897084E+002
2,0084010E-001	1,364260500223396E+002
2,0091641E-001	1,361591586673308E+002
2,0088971E-001	1,362810042758776E+002
2,0090117E-001	1,365266271824732E+002
2,0085917E-001	1,365417109841238E+002
2,0090115E-001	1,361943310498111E+002
2,0092024E-001	1,361810063210810E+002
2,0092024E-001	1,364118515173423E+002
2,0083629E-001	1,365867875660731E+002
2,0087826E-001	1,363296414383612E+002
2,0086300E-001	1,361368477292672E+002
2,0088208E-001	1,362826121647122E+002
2,0086300E-001	1,365366512610956E+002
2,0087826E-001	1,364853030359215E+002
2,0086680E-001	1,361603232456073E+002
2,0087826E-001	1,361881785929907E+002
2,0087826E-001	1,364261676523475E+002
2,0088208E-001	1,365754200303855E+002
2,0087826E-001	1,362520925652864E+002
2,4209417E-001	1,728729291718250E+002
2,5106460E-001	1,706804755977622E+002
2,5107223E-001	1,691814115736866E+002
2,5109130E-001	1,693084408066320E+002
2,5102645E-001	1,690787433215813E+002
2,5101882E-001	1,686897429730092E+002
2,5101119E-001	1,688195182875669E+002
2,5102264E-001	1,692396367460559E+002
2,5105697E-001	1,694893866791230E+002
2,5100738E-001	1,691033815637809E+002
2,5103790E-001	1,691216508818693E+002
2,5106081E-001	1,694091255107136E+002
2,5103790E-001	1,698084147053708E+002
2,5104553E-001	1,695867274286524E+002
2,5105697E-001	1,693439477380709E+002
2,5103027E-001	1,695090361119924E+002
2,5105697E-001	1,698802940589933E+002
2,5104934E-001	1,699942260778626E+002
2,5103790E-001	1,695162882056815E+002
2,5102264E-001	1,695619294940659E+002
2,5100356E-001	1,698009017107962E+002
2,5099975E-001	1,701390631939483E+002
2,5101501E-001	1,697716449656724E+002
2,5105697E-001	1,695742284323649E+002
2,5102264E-001	1,697399410860873E+002
2,5104934E-001	1,700911340942267E+002
2,5100738E-001	1,700986525667067E+002
2,5103408E-001	1,696190944216575E+002
2,5104171E-001	1,697269032287022E+002
2,5106460E-001	1,699785411256842E+002
2,5103027E-001	1,702859901111121E+002
2,5101119E-001	1,698280988947108E+002
2,5104171E-001	1,697085217096832E+002
2,5104555E-001	1,698937665813062E+002
2,5103408E-001	1,702242958834794E+002
2,5104171E-001	1,701246064003702E+002
2,5105315E-001	1,696762919816962E+002
2,5099212E-001	1,698285587580037E+002
2,5101119E-001	1,700429518817058E+002
2,5106844E-001	1,702881919422224E+002
2,5104553E-001	1,697456902714132E+002
2,5102645E-001	1,697178652371409E+002
2,5104553E-001	1,699098354476790E+002
2,5106460E-001	1,702332921544586E+002
2,5104171E-001	1,700242408003006E+002
2,5106081E-001	1,696378448097044E+002
2,5105697E-001	1,698260285485892E+002
2,5104171E-001	1,700644742852037E+002
2,5099593E-001	1,702575263835864E+002
2,5103408E-001	1,696691732193093E+002
2,5103027E-001	1,697164744778285E+002
2,5103408E-001	1,699234286426024E+002
2,5101882E-001	1,702298171360602E+002
2,5099212E-001	1,699137084702378E+002
2,5104171E-001	1,696044013335178E+002
2,5103790E-001	1,698226695305600E+002
2,5099975E-001	1,700737722621231E+002
2,5103790E-001	1,701911943842301E+002
2,5103027E-001	1,696035003905018E+002
2,5106081E-001	1,697240216734537E+002
2,5107223E-001	1,699505340995902E+002
2,9212028E-001	2,023072866048526E+002
3,0098766E-001	2,043313095533225E+002
3,0097240E-001	2,022772546186202E+002
3,0102965E-001	2,018280697073705E+002
3,0094570E-001	2,021022264953022E+002
3,0093807E-001	2,024332594473904E+002
3,0101436E-001	2,025156374096765E+002
3,0095714E-001	2,019076286846001E+002
3,0098385E-001	2,022373991183458E+002
3,0095333E-001	2,026480101730303E+002
3,0094951E-001	2,030640026823184E+002
3,0096859E-001	2,025272109237628E+002
3,0097240E-001	2,024087405167173E+002
3,0099148E-001	2,028161690456865E+002
3,0094951E-001	2,031946147705789E+002
3,0099910E-001	2,031436933367974E+002
3,0098385E-001	2,025330284623619E+002
3,0101821E-001	2,028427540347614E+002
3,0096477E-001	2,031941695007922E+002
3,0098385E-001	2,034813082226456E+002
3,0099529E-001	2,028174980313158E+002
3,0098766E-001	2,027498882792416E+002
3,0100676E-001	2,031342467697863E+002
3,0098385E-001	2,034677419625373E+002
3,0097622E-001	2,032579384477157E+002
3,0101439E-001	2,027176301515956E+002
3,0096859E-001	2,030447675133755E+002
3,0098766E-001	2,033925880391299E+002
3,0097622E-001	2,035773702764639E+002
3,0095333E-001	2,028854780867441E+002
3,0099529E-001	2,029113901998254E+002
3,0098766E-001	2,033006626339757E+002
3,0100673E-001	2,036089268660062E+002
3,0098003E-001	2,032650631915480E+002
3,0098003E-001	2,028328963898591E+002
3,0099529E-001	2,031773298305671E+002
3,0099148E-001	2,035283205651418E+002
3,0099148E-001	2,035858614143738E+002
3,0098003E-001	2,029053573352931E+002
3,0100292E-001	2,029928533885289E+002
3,0096096E-001	2,033846292712287E+002
3,0099913E-001	2,036507108941614E+002
3,0096477E-001	2,031877953276576E+002
3,0098766E-001	2,028561689978689E+002
3,0097622E-001	2,032166997076602E+002
3,0097622E-001	2,035620489870144E+002
3,0098385E-001	2,034815671581990E+002
3,0098003E-001	2,028708587595925E+002
3,0099529E-001	2,030037655103866E+002
3,0101055E-001	2,033979662893879E+002
3,0097622E-001	2,036092775923335E+002
3,0094570E-001	2,030628373258437E+002
3,0098766E-001	2,028593301795894E+002
3,0098766E-001	2,032434235273051E+002
3,0097622E-001	2,035838741035325E+002
3,0096859E-001	2,033725078842037E+002
3,0097622E-001	2,028626631539167E+002
3,0099529E-001	2,030524298853952E+002
3,0098003E-001	2,034553205877118E+002
3,0098003E-001	2,035777543707119E+002
3,4205097E-001	2,029954499323893E+002
3,4894571E-001	2,428425812079618E+002
3,5093746E-001	2,363590550248870E+002
3,5091835E-001	2,354778037941287E+002
3,5095650E-001	2,357663098377939E+002
3,5096034E-001	2,353098414546805E+002
3,5090691E-001	2,348029805379455E+002
3,5093361E-001	2,351635776967131E+002
3,5092217E-001	2,357985638455667E+002
3,5092983E-001	2,359469958225830E+002
3,5096413E-001	2,353114904171245E+002
3,5094509E-001	2,353949368547794E+002
3,5096416E-001	2,359881216201307E+002
3,5091072E-001	2,364288595463038E+002
3,5096034E-001	2,359016678520776E+002
3,5089165E-001	2,355870119267703E+002
3,5095653E-001	2,359683185220963E+002
3,5091072E-001	2,365394686341810E+002
3,5094124E-001	2,364368402105679E+002
3,5093361E-001	2,357843416131517E+002
3,5091454E-001	2,358910628377716E+002
3,5090691E-001	2,364480296273545E+002
3,5094509E-001	2,367743593597193E+002
3,5089165E-001	2,360600089968247E+002
3,5091075E-001	2,358665164656915E+002
3,5095271E-001	2,362576828390986E+002
3,5095650E-001	2,368161150645095E+002
3,5094509E-001	2,365162851619156E+002
3,5096034E-001	2,359508778203617E+002
3,5096794E-001	2,361188279344678E+002
3,5090309E-001	2,366700336979042E+002
3,5091072E-001	2,369160469060232E+002
3,5093743E-001	2,360985798382532E+002
3,5096031E-001	2,360261020959437E+002
3,5092598E-001	2,364341454747820E+002
3,5092980E-001	2,369666673296653E+002
3,5094127E-001	2,364826862200268E+002
3,5093361E-001	2,360256545556492E+002
3,5091072E-001	2,362514723012220E+002
3,5092983E-001	2,367965351750989E+002
3,5097179E-001	2,369387595408743E+002
3,5095650E-001	2,360846830300408E+002
3,5096794E-001	2,361198561418912E+002
3,5092980E-001	2,365403438661367E+002
3,5091835E-001	2,370345046391183E+002
3,5096416E-001	2,363725439381916E+002
3,5089168E-001	2,360447419584752E+002
3,5094509E-001	2,362985092286798E+002
3,5095653E-001	2,368504419574665E+002
3,5096416E-001	2,368275161603786E+002
3,5095653E-001	2,359976766344102E+002
3,5094890E-001	2,361408107047985E+002
3,5096034E-001	2,365693162637192E+002
3,5093743E-001	2,370367950658119E+002
3,5095653E-001	2,362277994338027E+002
3,5096034E-001	2,360563124818387E+002
3,5094127E-001	2,363490217391111E+002
3,5093364E-001	2,368921427306147E+002
3,5094509E-001	2,367203416367971E+002
3,5092983E-001	2,359848792158740E+002
3,5091072E-001	2,361938613805772E+002
3,5094506E-001	2,366417490239482E+002
3,9205414E-001	2,668277044945410E+002
4,0089104E-001	2,704221665360284E+002
4,0088341E-001	2,679742693184276E+002
4,0088722E-001	2,678271186005989E+002
4,0091774E-001	2,682114013190469E+002
4,0087193E-001	2,688982479855680E+002
4,0091392E-001	2,685432553130260E+002
4,0087959E-001	2,678993273731750E+002
4,0086815E-001	2,683769202136092E+002
4,0092534E-001	2,690436306308423E+002
4,0090629E-001	2,695174723725489E+002
4,0086815E-001	2,684097129573575E+002
4,0092537E-001	2,685870946757057E+002
4,0087956E-001	2,690962640428165E+002
4,0089485E-001	2,697818829993457E+002
4,0087193E-001	2,692057961500757E+002
4,0090629E-001	2,686283646047268E+002
4,0088341E-001	2,690547967260951E+002
4,0089485E-001	2,696392451600489E+002
4,0084904E-001	2,698920603275684E+002
4,0087575E-001	2,687369793596679E+002
4,0087959E-001	2,690014791893478E+002
4,0090248E-001	2,694877335046101E+002
4,0089867E-001	2,700968163569109E+002
4,0091392E-001	2,693070676858371E+002
4,0086815E-001	2,688907720942659E+002
4,0089104E-001	2,693688132806586E+002
4,0084523E-001	2,699583809102985E+002
4,0085670E-001	2,700100917575521E+002
4,0084904E-001	2,689078251525580E+002
4,0092155E-001	2,692528650477491E+002
4,0093300E-001	2,697606153230271E+002
4,0089104E-001	2,702650769629681E+002
4,0088722E-001	2,693155053264312E+002
4,0084141E-001	2,690789314557086E+002
4,0082997E-001	2,695911977894504E+002
4,0088722E-001	2,701299192874346E+002
4,0087959E-001	2,699498634418216E+002
4,0092155E-001	2,689722595658069E+002
4,0089867E-001	2,693909349364910E+002
4,0091011E-001	2,699044435493167E+002
4,0088341E-001	2,702966059920849E+002
4,0087959E-001	2,692777155854862E+002
4,0087956E-001	2,691954802562604E+002
4,0089867E-001	2,697476537138130E+002
4,0089485E-001	2,702636101721596E+002
4,0093681E-001	2,698922465885594E+002
4,0089867E-001	2,690679835062134E+002
4,0089867E-001	2,695512247171516E+002
4,0085667E-001	2,700870694450435E+002
4,0085670E-001	2,702960003402142E+002
4,0086815E-001	2,692309975423139E+002
4,0087196E-001	2,692949174413895E+002
4,0086433E-001	2,698888569217257E+002
4,0083763E-001	2,703460674252192E+002
4,0091774E-001	2,697665047396798E+002
4,0088341E-001	2,691193325797761E+002
4,0087193E-001	2,696526050908064E+002
4,0087956E-001	2,702101199730544E+002
4,0087575E-001	2,702440264497411E+002
4,4201916E-001	2,692252519784112E+002
4,4887197E-001	3,104484636531347E+002
4,5083317E-001	3,022030465869278E+002
4,5087132E-001	3,017703595642785E+002
4,5080262E-001	3,021879415511458E+002
4,5081410E-001	3,012711551327222E+002
4,5084080E-001	3,006965033176681E+002
4,5084080E-001	3,014819444691018E+002
4,5085606E-001	3,022772946845066E+002
4,5084080E-001	3,022150211599842E+002
4,5085225E-001	3,012033030985374E+002
4,5081407E-001	3,016078585530933E+002
4,5079881E-001	3,024862152830461E+002
4,5085606E-001	3,029347886098077E+002
4,5084843E-001	3,019363208477679E+002
4,5085606E-001	3,016242526636149E+002
4,5084077E-001	3,024086569192704E+002
4,5084465E-001	3,031009406769933E+002
4,5085606E-001	3,026895440235342E+002
4,5079502E-001	3,017675962036129E+002
4,5082551E-001	3,021598959571757E+002
4,5084462E-001	3,029854772768597E+002
4,5084080E-001	3,032246332399325E+002
4,5082936E-001	3,021082496607049E+002
4,5082554E-001	3,019406666852800E+002
4,5079884E-001	3,027266102659256E+002
4,5086750E-001	3,033653839759100E+002
4,5084462E-001	3,026841487963471E+002
4,5089424E-001	3,019556709337059E+002
4,5086369E-001	3,023997558509303E+002
4,5082936E-001	3,032246516847572E+002
4,5082936E-001	3,032577351267551E+002
4,5084462E-001	3,021432142306800E+002
4,5087132E-001	3,021439181247408E+002
4,5084462E-001	3,029530901544595E+002
4,5086750E-001	3,035249569779881E+002
4,5084462E-001	3,026086381499083E+002
4,5081028E-001	3,020971816611577E+002
4,5083699E-001	3,025898381799510E+002
4,5083699E-001	3,034137266223950E+002
4,5083696E-001	3,032120717833164E+002
4,5088658E-001	3,022051598743348E+002
4,5085606E-001	3,023356021505792E+002
4,5084843E-001	3,031464670087098E+002
4,5088276E-001	3,036273007122630E+002
4,5088658E-001	3,025069405765384E+002
4,5083699E-001	3,022403297116489E+002
4,5082554E-001	3,027880457533175E+002
4,5084462E-001	3,035899376803133E+002
4,5083699E-001	3,031076127474744E+002
4,5086369E-001	3,022735576971075E+002
4,5081028E-001	3,025125043523137E+002
4,5084077E-001	3,033371803375023E+002
4,5086750E-001	3,036599592396993E+002
4,5087895E-001	3,024285493453100E+002
4,5086369E-001	3,024041049904445E+002
4,5085990E-001	3,029632197079380E+002
4,5087513E-001	3,037456330028500E+002
4,5082936E-001	3,030027681098160E+002
4,5079884E-001	3,023467143945123E+002
4,5083317E-001	3,026802851487886E+002
4,5081410E-001	3,035023697484177E+002
4,9201855E-001	3,303896262662659E+002
5,0073338E-001	3,365071211961974E+002
5,0072193E-001	3,337425971334397E+002
5,0073338E-001	3,338646580679197E+002
5,0071049E-001	3,345823386097315E+002
5,0072575E-001	3,354809241976172E+002
5,0074482E-001	3,343610375970609E+002
5,0075626E-001	3,339799985310386E+002
5,0079441E-001	3,345646241866766E+002
5,0075626E-001	3,357089561003505E+002
5,0073338E-001	3,356993146328218E+002
5,0073719E-001	3,343294137986546E+002
5,0075245E-001	3,347470963104269E+002
5,0072575E-001	3,355594972098561E+002
5,0073719E-001	3,363929784931186E+002
5,0075626E-001	3,349947334382647E+002
5,0071806E-001	3,347686987523788E+002
5,0078678E-001	3,353216546257227E+002
5,0077915E-001	3,363644694652988E+002
5,0068760E-001	3,359914182351716E+002
5,0074482E-001	3,346994896624957E+002
5,0074100E-001	3,352009792076351E+002
5,0073719E-001	3,359853933692968E+002
5,0074100E-001	3,366701511990952E+002
5,0075626E-001	3,350591993517585E+002
5,0070286E-001	3,350833057000237E+002
5,0072575E-001	3,356762680502083E+002
5,0076008E-001	3,366697265652954E+002
5,0074482E-001	3,359560639313000E+002
5,0074863E-001	3,348437307305927E+002
5,0074863E-001	3,354435519737727E+002
5,0074100E-001	3,362606820725402E+002
5,0071430E-001	3,367296553387820E+002
5,0073719E-001	3,350096106236991E+002
5,0075626E-001	3,352474399387892E+002
5,0073719E-001	3,358819377209313E+002
5,0073338E-001	3,368306656379646E+002
5,0074482E-001	3,358228562314017E+002
5,0074482E-001	3,349500855977814E+002
5,0077152E-001	3,356218460395561E+002
5,0072956E-001	3,364534371616381E+002
5,0076008E-001	3,366672829861321E+002
5,0072193E-001	3,349961109773620E+002
5,0072193E-001	3,354034585645568E+002
5,0074482E-001	3,360811909058965E+002
5,0071812E-001	3,369345468356572E+002
5,0071812E-001	3,356731487996412E+002
5,0075245E-001	3,350570282030220E+002
5,0072575E-001	3,357998207938080E+002
5,0076771E-001	3,366333298785849E+002
5,0076771E-001	3,365871579413833E+002
5,0073338E-001	3,350405238324879E+002
5,0074863E-001	3,355673442010211E+002
5,0070667E-001	3,362737786915234E+002
5,0078297E-001	3,370196578912741E+002
5,0072956E-001	3,355783486995902E+002
5,0079060E-001	3,352259620634908E+002
5,0074482E-001	3,360220870042569E+002
5,0076389E-001	3,368352489266546E+002
5,0071049E-001	3,365024897873890E+002
5,0075626E-001	3,351346218268731E+002
5,4192257E-001	3,756944369810741E+002
5,5068696E-001	3,679842959171589E+002
5,5069077E-001	3,678248192468704E+002
5,5071747E-001	3,684862912789615E+002
5,5067933E-001	3,666250950100199E+002
5,5070603E-001	3,664690456835681E+002
5,5065644E-001	3,675547013750565E+002
5,5072129E-001	3,686141283183238E+002
5,5064499E-001	3,680201739454091E+002
5,5072510E-001	3,667478237484719E+002
5,5069077E-001	3,676810475269299E+002
5,5069458E-001	3,686857626157877E+002
5,5067933E-001	3,692084456062867E+002
5,5069840E-001	3,673709902986382E+002
5,5074418E-001	3,675090395697038E+002
5,5070984E-001	3,685839222994943E+002
5,5068696E-001	3,694537817452969E+002
5,5070603E-001	3,684150993093896E+002
5,5075181E-001	3,673518152432222E+002
5,5069458E-001	3,682707065506150E+002
5,5070984E-001	3,692628130087832E+002
5,5067170E-001	3,693557880050284E+002
5,5069458E-001	3,675741718040152E+002
5,5067170E-001	3,678600556918524E+002
5,5070221E-001	3,689677251107036E+002
5,5067551E-001	3,696936569893938E+002
5,5070984E-001	3,683700362040032E+002
5,5073273E-001	3,676025077422310E+002
5,5068696E-001	3,685866805148960E+002
5,5071747E-001	3,695723817971212E+002
5,5070603E-001	3,692757416651157E+002
5,5068696E-001	3,676973523735332E+002
5,5067551E-001	3,681313093730213E+002
5,5067170E-001	3,692408781022232E+002
5,5070984E-001	3,697707045865550E+002
5,5070984E-001	3,682347813299809E+002
5,5069840E-001	3,677565074653596E+002
5,5069840E-001	3,687823888877600E+002
5,5071366E-001	3,697511855491967E+002
5,5067551E-001	3,690720746983007E+002
5,5067170E-001	3,677185235349567E+002
5,5072129E-001	3,682813133135783E+002
5,5070603E-001	3,694591005015348E+002
5,5069458E-001	3,697357059711690E+002
5,5067170E-001	3,681194041664217E+002
5,5067545E-001	3,678846939126897E+002
5,5070603E-001	3,689827394604482E+002
5,5070221E-001	3,699158161441759E+002
5,5070221E-001	3,688762466599064E+002
5,5067551E-001	3,678005062579750E+002
5,5073273E-001	3,684753743231194E+002
5,5070603E-001	3,696799707341652E+002
5,5067551E-001	3,696546114378703E+002
5,5070221E-001	3,681056852756943E+002
5,5069840E-001	3,680688609949788E+002
5,5066407E-001	3,692281233289518E+002
5,5070603E-001	3,700623789835718E+002
5,5070984E-001	3,687115131962722E+002
5,5073273E-001	3,679250469898810E+002
5,5069077E-001	3,686780525508957E+002
5,5068314E-001	3,699158193806460E+002
5,9188759E-001	3,924126380870052E+002
6,0065198E-001	4,018685416828150E+002
6,0063672E-001	3,989793420431773E+002
6,0060620E-001	3,990869302539030E+002
6,0061002E-001	4,005275696335583E+002
6,0065961E-001	4,014099703211328E+002
6,0062909E-001	3,995834818411540E+002
6,0058326E-001	3,991528214481945E+002
6,0057950E-001	4,002328117830945E+002
6,0062909E-001	4,018406140942188E+002
6,0056806E-001	4,010338560965435E+002
6,0065961E-001	3,997356950713176E+002
6,0062146E-001	4,000753878594400E+002
6,0067487E-001	4,016141780106177E+002
6,0065579E-001	4,022632223446410E+002
6,0061002E-001	4,002361415439208E+002
6,0058331E-001	4,000156612710171E+002
6,0059857E-001	4,010635214537382E+002
6,0067105E-001	4,025207476074942E+002
6,0065198E-001	4,011942354279876E+002
6,0061383E-001	4,001248158392042E+002
6,0065961E-001	4,005757398129979E+002
6,0059094E-001	4,020852990918552E+002
6,0059476E-001	4,023696416405422E+002
6,0061383E-001	4,002731731549638E+002
6,0063291E-001	4,003383042051931E+002
6,0059094E-001	4,014023672874935E+002
6,0065961E-001	4,027461970272520E+002
6,0063291E-001	4,010209705615500E+002
6,0056806E-001	4,003094544730190E+002
6,0063672E-001	4,008927387956153E+002
6,0059476E-001	4,024139561069937E+002
6,0060620E-001	4,022716231138961E+002
6,0058331E-001	4,003511716432623E+002
6,0063291E-001	4,006471111099668E+002
6,0059094E-001	4,017607647635884E+002
6,0062528E-001	4,029668410330701E+002
6,0062146E-001	4,009130999045281E+002
6,0059094E-001	4,005494132437293E+002
6,0063291E-001	4,012338091899736E+002
6,0062909E-001	4,027176156788738E+002
6,0061383E-001	4,021524996184552E+002
6,0064435E-001	4,004308718527952E+002
6,0065198E-001	4,009389941678775E+002
6,0057944E-001	4,020772646128925E+002
6,0057569E-001	4,030509127820201E+002
6,0061383E-001	4,007458458719826E+002
6,0060620E-001	4,007407672158485E+002
6,0061002E-001	4,015219942985722E+002
6,0064054E-001	4,029590863880989E+002
6,0061383E-001	4,019237158907518E+002
6,0061002E-001	4,005053029032595E+002
6,0060239E-001	4,011660736352840E+002
6,0063291E-001	4,023513857990166E+002
6,0057950E-001	4,030289041877141E+002
6,0060233E-001	4,006069905278987E+002
6,0055655E-001	4,009333312099708E+002
6,0057187E-001	4,017878699156403E+002
6,0065579E-001	4,031502967628022E+002
6,0061383E-001	4,016682052458693E+002
6,0063291E-001	4,006064333457328E+002